Data	Set	Name:	Wavelength	Pair	3
Analyst:	

Created:	12:22:14	03/20/15
Data:	Original

Instrument	Type:	RF-5301PC
Wavelength:	EX:648.0nm	EM:668.0nm
Slit	Width:	EX:5.0nm	EM:5.0nm
Acquisition	Ra	2.000	Seconds
Reaction	Time:	600.000	Seconds
Sensitivity:	High
Response	Time:	Auto	
Shutter	Mode:	Auto,	Closed

	Time(sec)	Intensity
	0.0000	155.307
	2.0000	155.307
	4.0000	155.307
	6.0000	155.067
	8.0000	154.828
	10.0000	154.588
	12.0000	154.703
	14.0000	154.819
	16.0000	154.934
	18.0000	155.193
	20.0000	155.453
	22.0000	155.712
	24.0000	155.367
	26.0000	155.021
	28.0000	154.676
	30.0000	154.724
	32.0000	154.772
	34.0000	154.820
	36.0000	154.612
	38.0000	154.403
	40.0000	154.195
	42.0000	154.252
	44.0000	154.310
	46.0000	154.367
	48.0000	154.263
	50.0000	154.158
	52.0000	154.054
	54.0000	153.984
	56.0000	153.915
	58.0000	153.845
	60.0000	153.958
	62.0000	154.072
	64.0000	154.185
	66.0000	153.726
	68.0000	153.266
	70.0000	152.807
	72.0000	152.964
	74.0000	153.122
	76.0000	153.279
	78.0000	153.328
	80.0000	153.377
	82.0000	153.426
	84.0000	153.115
	86.0000	152.804
	88.0000	152.493
	90.0000	152.692
	92.0000	152.892
	94.0000	153.091
	96.0000	152.927
	98.0000	152.763
	100.0000	152.599
	102.0000	152.451
	104.0000	152.304
	106.0000	152.156
	108.0000	152.179
	110.0000	152.202
	112.0000	152.225
	114.0000	152.003
	116.0000	151.782
	118.0000	151.560
	120.0000	151.714
	122.0000	151.867
	124.0000	152.021
	126.0000	151.894
	128.0000	151.767
	130.0000	151.640
	132.0000	151.600
	134.0000	151.561
	136.0000	151.521
	138.0000	151.453
	140.0000	151.386
	142.0000	151.318
	144.0000	151.397
	146.0000	151.475
	148.0000	151.554
	150.0000	151.369
	152.0000	151.185
	154.0000	151.000
	156.0000	150.943
	158.0000	150.885
	160.0000	150.828
	162.0000	150.641
	164.0000	150.455
	166.0000	150.268
	168.0000	150.294
	170.0000	150.320
	172.0000	150.346
	174.0000	150.304
	176.0000	150.262
	178.0000	150.220
	180.0000	150.158
	182.0000	150.095
	184.0000	150.033
	186.0000	149.958
	188.0000	149.884
	190.0000	149.809
	192.0000	149.747
	194.0000	149.684
	196.0000	149.622
	198.0000	149.508
	200.0000	149.393
	202.0000	149.279
	204.0000	149.348
	206.0000	149.417
	208.0000	149.486
	210.0000	149.365
	212.0000	149.243
	214.0000	149.122
	216.0000	149.028
	218.0000	148.933
	220.0000	148.839
	222.0000	148.823
	224.0000	148.808
	226.0000	148.792
	228.0000	148.775
	230.0000	148.758
	232.0000	148.741
	234.0000	148.485
	236.0000	148.229
	238.0000	147.973
	240.0000	148.074
	242.0000	148.174
	244.0000	148.275
	246.0000	148.247
	248.0000	148.220
	250.0000	148.192
	252.0000	148.135
	254.0000	148.079
	256.0000	148.022
	258.0000	147.903
	260.0000	147.784
	262.0000	147.665
	264.0000	147.686
	266.0000	147.707
	268.0000	147.728
	270.0000	147.649
	272.0000	147.571
	274.0000	147.492
	276.0000	147.295
	278.0000	147.099
	280.0000	146.902
	282.0000	146.927
	284.0000	146.953
	286.0000	146.978
	288.0000	146.990
	290.0000	147.003
	292.0000	147.015
	294.0000	147.066
	296.0000	147.116
	298.0000	147.167
	300.0000	147.109
	302.0000	147.052
	304.0000	146.994
	306.0000	146.971
	308.0000	146.949
	310.0000	146.926
	312.0000	146.744
	314.0000	146.563
	316.0000	146.381
	318.0000	146.334
	320.0000	146.288
	322.0000	146.241
	324.0000	146.454
	326.0000	146.668
	328.0000	146.881
	330.0000	146.583
	332.0000	146.286
	334.0000	145.988
	336.0000	145.846
	338.0000	145.704
	340.0000	145.562
	342.0000	145.651
	344.0000	145.741
	346.0000	145.830
	348.0000	145.687
	350.0000	145.543
	352.0000	145.400
	354.0000	145.220
	356.0000	145.041
	358.0000	144.861
	360.0000	145.144
	362.0000	145.427
	364.0000	145.710
	366.0000	145.303
	368.0000	144.897
	370.0000	144.490
	372.0000	144.542
	374.0000	144.593
	376.0000	144.645
	378.0000	144.737
	380.0000	144.828
	382.0000	144.920
	384.0000	144.783
	386.0000	144.646
	388.0000	144.509
	390.0000	144.557
	392.0000	144.606
	394.0000	144.654
	396.0000	144.738
	398.0000	144.822
	400.0000	144.906
	402.0000	144.714
	404.0000	144.522
	406.0000	144.330
	408.0000	144.205
	410.0000	144.079
	412.0000	143.954
	414.0000	143.838
	416.0000	143.721
	418.0000	143.605
	420.0000	143.755
	422.0000	143.905
	424.0000	144.055
	426.0000	143.846
	428.0000	143.638
	430.0000	143.429
	432.0000	143.258
	434.0000	143.086
	436.0000	142.915
	438.0000	143.025
	440.0000	143.136
	442.0000	143.246
	444.0000	143.256
	446.0000	143.265
	448.0000	143.275
	450.0000	143.016
	452.0000	142.758
	454.0000	142.499
	456.0000	142.593
	458.0000	142.687
	460.0000	142.781
	462.0000	142.916
	464.0000	143.052
	466.0000	143.187
	468.0000	142.887
	470.0000	142.587
	472.0000	142.287
	474.0000	142.201
	476.0000	142.114
	478.0000	142.028
	480.0000	142.063
	482.0000	142.099
	484.0000	142.134
	486.0000	142.167
	488.0000	142.201
	490.0000	142.234
	492.0000	142.124
	494.0000	142.014
	496.0000	141.904
	498.0000	141.838
	500.0000	141.773
	502.0000	141.707
	504.0000	141.793
	506.0000	141.879
	508.0000	141.965
	510.0000	141.792
	512.0000	141.618
	514.0000	141.445
	516.0000	141.367
	518.0000	141.289
	520.0000	141.211
	522.0000	141.124
	524.0000	141.037
	526.0000	140.950
	528.0000	141.019
	530.0000	141.088
	532.0000	141.157
	534.0000	141.034
	536.0000	140.912
	538.0000	140.789
	540.0000	140.947
	542.0000	141.106
	544.0000	141.264
	546.0000	141.096
	548.0000	140.928
	550.0000	140.760
	552.0000	140.616
	554.0000	140.473
	556.0000	140.329
	558.0000	140.226
	560.0000	140.123
	562.0000	140.020
	564.0000	140.064
	566.0000	140.107
	568.0000	140.151
	570.0000	140.439
	572.0000	140.728
	574.0000	141.016
	576.0000	140.774
	578.0000	140.533
	580.0000	140.291
	582.0000	140.006
	584.0000	139.721
	586.0000	139.436
	588.0000	139.477
	590.0000	139.517
	592.0000	139.558
	594.0000	139.565
	596.0000	139.571
	598.0000	139.578
	600.0000	139.709

