Data	Set	Name:	Wavelength	Pair	2
Analyst:	

Created:	12:42:54	03/20/15
Data:	Original

Instrument	Type:	RF-5301PC
Wavelength:	EX:549.0nm	EM:563.0nm
Slit	Width:	EX:5.0nm	EM:5.0nm
Acquisition	Ra	2.000	Seconds
Reaction	Time:	600.000	Seconds
Sensitivity:	High
Response	Time:	Auto	
Shutter	Mode:	Auto,	Closed

	Time(sec)	Intensity
	0.0000	410.485
	2.0000	410.485
	4.0000	410.485
	6.0000	410.412
	8.0000	410.340
	10.0000	410.267
	12.0000	410.156
	14.0000	410.045
	16.0000	409.934
	18.0000	409.970
	20.0000	410.006
	22.0000	410.042
	24.0000	409.861
	26.0000	409.679
	28.0000	409.498
	30.0000	409.410
	32.0000	409.323
	34.0000	409.235
	36.0000	409.168
	38.0000	409.101
	40.0000	409.034
	42.0000	409.096
	44.0000	409.159
	46.0000	409.221
	48.0000	409.208
	50.0000	409.194
	52.0000	409.181
	54.0000	409.224
	56.0000	409.268
	58.0000	409.311
	60.0000	409.179
	62.0000	409.048
	64.0000	408.916
	66.0000	408.757
	68.0000	408.598
	70.0000	408.439
	72.0000	408.373
	74.0000	408.306
	76.0000	408.240
	78.0000	408.193
	80.0000	408.146
	82.0000	408.099
	84.0000	408.332
	86.0000	408.565
	88.0000	408.798
	90.0000	408.688
	92.0000	408.577
	94.0000	408.467
	96.0000	408.438
	98.0000	408.409
	100.0000	408.380
	102.0000	408.358
	104.0000	408.337
	106.0000	408.315
	108.0000	408.227
	110.0000	408.138
	112.0000	408.050
	114.0000	407.951
	116.0000	407.851
	118.0000	407.752
	120.0000	407.746
	122.0000	407.740
	124.0000	407.734
	126.0000	407.719
	128.0000	407.704
	130.0000	407.689
	132.0000	407.600
	134.0000	407.511
	136.0000	407.422
	138.0000	407.293
	140.0000	407.165
	142.0000	407.036
	144.0000	407.165
	146.0000	407.294
	148.0000	407.423
	150.0000	407.523
	152.0000	407.623
	154.0000	407.723
	156.0000	407.643
	158.0000	407.563
	160.0000	407.483
	162.0000	407.327
	164.0000	407.171
	166.0000	407.015
	168.0000	407.119
	170.0000	407.224
	172.0000	407.328
	174.0000	407.289
	176.0000	407.249
	178.0000	407.210
	180.0000	407.407
	182.0000	407.604
	184.0000	407.801
	186.0000	407.876
	188.0000	407.951
	190.0000	408.026
	192.0000	407.832
	194.0000	407.639
	196.0000	407.445
	198.0000	407.360
	200.0000	407.275
	202.0000	407.190
	204.0000	407.047
	206.0000	406.903
	208.0000	406.760
	210.0000	407.163
	212.0000	407.566
	214.0000	407.969
	216.0000	407.550
	218.0000	407.131
	220.0000	406.712
	222.0000	406.634
	224.0000	406.555
	226.0000	406.477
	228.0000	406.682
	230.0000	406.887
	232.0000	407.092
	234.0000	406.916
	236.0000	406.740
	238.0000	406.564
	240.0000	406.478
	242.0000	406.391
	244.0000	406.305
	246.0000	406.202
	248.0000	406.099
	250.0000	405.996
	252.0000	405.809
	254.0000	405.623
	256.0000	405.436
	258.0000	405.926
	260.0000	406.415
	262.0000	406.905
	264.0000	406.725
	266.0000	406.546
	268.0000	406.366
	270.0000	406.224
	272.0000	406.082
	274.0000	405.940
	276.0000	405.800
	278.0000	405.660
	280.0000	405.520
	282.0000	405.707
	284.0000	405.894
	286.0000	406.081
	288.0000	406.163
	290.0000	406.246
	292.0000	406.328
	294.0000	405.801
	296.0000	405.273
	298.0000	404.746
	300.0000	404.884
	302.0000	405.022
	304.0000	405.160
	306.0000	405.070
	308.0000	404.981
	310.0000	404.891
	312.0000	404.677
	314.0000	404.462
	316.0000	404.248
	318.0000	404.540
	320.0000	404.831
	322.0000	405.123
	324.0000	405.122
	326.0000	405.122
	328.0000	405.121
	330.0000	405.198
	332.0000	405.274
	334.0000	405.351
	336.0000	405.154
	338.0000	404.956
	340.0000	404.759
	342.0000	404.804
	344.0000	404.850
	346.0000	404.895
	348.0000	404.808
	350.0000	404.721
	352.0000	404.634
	354.0000	404.659
	356.0000	404.683
	358.0000	404.708
	360.0000	404.578
	362.0000	404.449
	364.0000	404.319
	366.0000	404.511
	368.0000	404.703
	370.0000	404.895
	372.0000	404.981
	374.0000	405.066
	376.0000	405.152
	378.0000	405.030
	380.0000	404.907
	382.0000	404.785
	384.0000	404.556
	386.0000	404.326
	388.0000	404.097
	390.0000	404.135
	392.0000	404.174
	394.0000	404.212
	396.0000	404.289
	398.0000	404.366
	400.0000	404.443
	402.0000	404.232
	404.0000	404.022
	406.0000	403.811
	408.0000	404.025
	410.0000	404.239
	412.0000	404.453
	414.0000	404.082
	416.0000	403.711
	418.0000	403.340
	420.0000	403.413
	422.0000	403.485
	424.0000	403.558
	426.0000	403.711
	428.0000	403.865
	430.0000	404.018
	432.0000	403.767
	434.0000	403.517
	436.0000	403.266
	438.0000	403.622
	440.0000	403.978
	442.0000	404.334
	444.0000	404.220
	446.0000	404.105
	448.0000	403.991
	450.0000	403.612
	452.0000	403.232
	454.0000	402.853
	456.0000	403.023
	458.0000	403.194
	460.0000	403.364
	462.0000	403.457
	464.0000	403.549
	466.0000	403.642
	468.0000	403.681
	470.0000	403.719
	472.0000	403.758
	474.0000	403.442
	476.0000	403.126
	478.0000	402.810
	480.0000	402.923
	482.0000	403.036
	484.0000	403.149
	486.0000	403.157
	488.0000	403.166
	490.0000	403.174
	492.0000	403.604
	494.0000	404.033
	496.0000	404.463
	498.0000	403.809
	500.0000	403.155
	502.0000	402.501
	504.0000	402.570
	506.0000	402.638
	508.0000	402.707
	510.0000	402.595
	512.0000	402.482
	514.0000	402.370
	516.0000	402.138
	518.0000	401.905
	520.0000	401.673
	522.0000	401.936
	524.0000	402.200
	526.0000	402.463
	528.0000	402.136
	530.0000	401.808
	532.0000	401.481
	534.0000	401.658
	536.0000	401.835
	538.0000	402.012
	540.0000	402.032
	542.0000	402.053
	544.0000	402.073
	546.0000	402.090
	548.0000	402.106
	550.0000	402.123
	552.0000	402.178
	554.0000	402.232
	556.0000	402.287
	558.0000	402.275
	560.0000	402.263
	562.0000	402.251
	564.0000	401.977
	566.0000	401.703
	568.0000	401.429
	570.0000	401.503
	572.0000	401.578
	574.0000	401.652
	576.0000	401.708
	578.0000	401.765
	580.0000	401.821
	582.0000	401.646
	584.0000	401.470
	586.0000	401.295
	588.0000	401.591
	590.0000	401.888
	592.0000	402.184
	594.0000	401.876
	596.0000	401.567
	598.0000	401.259
	600.0000	401.297

