Data	Set	Name:	Wavelength	Pair	1
Analyst:	

Created:	13:44:57	03/20/15
Data:	Original

Instrument	Type:	RF-5301PC
Wavelength:	EX:495.0nm	EM:520.0nm
Slit	Width:	EX:5.0nm	EM:5.0nm
Acquisition	Ra	2.000	Seconds
Reaction	Time:	600.000	Seconds
Sensitivity:	High
Response	Time:	Auto	
Shutter	Mode:	Auto,	Closed

	Time(sec)	Intensity
	0.0000	335.633
	2.0000	335.633
	4.0000	335.633
	6.0000	357.187
	8.0000	378.742
	10.0000	400.296
	12.0000	400.018
	14.0000	399.741
	16.0000	399.463
	18.0000	399.504
	20.0000	399.546
	22.0000	399.587
	24.0000	399.312
	26.0000	399.036
	28.0000	398.761
	30.0000	398.831
	32.0000	398.900
	34.0000	398.970
	36.0000	399.031
	38.0000	399.091
	40.0000	399.152
	42.0000	399.269
	44.0000	399.386
	46.0000	399.503
	48.0000	399.302
	50.0000	399.100
	52.0000	398.899
	54.0000	398.897
	56.0000	398.896
	58.0000	398.894
	60.0000	398.770
	62.0000	398.647
	64.0000	398.523
	66.0000	398.576
	68.0000	398.628
	70.0000	398.681
	72.0000	398.478
	74.0000	398.276
	76.0000	398.073
	78.0000	397.997
	80.0000	397.922
	82.0000	397.846
	84.0000	398.082
	86.0000	398.317
	88.0000	398.553
	90.0000	398.311
	92.0000	398.070
	94.0000	397.828
	96.0000	398.097
	98.0000	398.365
	100.0000	398.634
	102.0000	398.170
	104.0000	397.705
	106.0000	397.241
	108.0000	397.250
	110.0000	397.259
	112.0000	397.268
	114.0000	397.136
	116.0000	397.004
	118.0000	396.872
	120.0000	397.097
	122.0000	397.323
	124.0000	397.548
	126.0000	397.317
	128.0000	397.087
	130.0000	396.856
	132.0000	397.004
	134.0000	397.151
	136.0000	397.299
	138.0000	396.948
	140.0000	396.597
	142.0000	396.246
	144.0000	396.471
	146.0000	396.695
	148.0000	396.920
	150.0000	396.859
	152.0000	396.798
	154.0000	396.737
	156.0000	396.416
	158.0000	396.094
	160.0000	395.773
	162.0000	395.734
	164.0000	395.696
	166.0000	395.657
	168.0000	395.777
	170.0000	395.896
	172.0000	396.016
	174.0000	395.805
	176.0000	395.594
	178.0000	395.383
	180.0000	395.576
	182.0000	395.768
	184.0000	395.961
	186.0000	395.969
	188.0000	395.977
	190.0000	395.985
	192.0000	395.868
	194.0000	395.751
	196.0000	395.634
	198.0000	395.769
	200.0000	395.904
	202.0000	396.039
	204.0000	395.940
	206.0000	395.840
	208.0000	395.741
	210.0000	395.643
	212.0000	395.544
	214.0000	395.446
	216.0000	395.218
	218.0000	394.990
	220.0000	394.762
	222.0000	394.900
	224.0000	395.039
	226.0000	395.177
	228.0000	394.943
	230.0000	394.710
	232.0000	394.476
	234.0000	394.321
	236.0000	394.167
	238.0000	394.012
	240.0000	393.971
	242.0000	393.929
	244.0000	393.888
	246.0000	393.800
	248.0000	393.713
	250.0000	393.625
	252.0000	393.848
	254.0000	394.070
	256.0000	394.293
	258.0000	394.341
	260.0000	394.389
	262.0000	394.437
	264.0000	394.227
	266.0000	394.017
	268.0000	393.807
	270.0000	393.834
	272.0000	393.862
	274.0000	393.889
	276.0000	393.721
	278.0000	393.553
	280.0000	393.385
	282.0000	393.601
	284.0000	393.818
	286.0000	394.034
	288.0000	393.771
	290.0000	393.508
	292.0000	393.245
	294.0000	393.323
	296.0000	393.401
	298.0000	393.479
	300.0000	393.359
	302.0000	393.239
	304.0000	393.119
	306.0000	393.131
	308.0000	393.142
	310.0000	393.154
	312.0000	393.083
	314.0000	393.011
	316.0000	392.940
	318.0000	392.930
	320.0000	392.920
	322.0000	392.910
	324.0000	392.748
	326.0000	392.587
	328.0000	392.425
	330.0000	392.405
	332.0000	392.386
	334.0000	392.366
	336.0000	392.581
	338.0000	392.797
	340.0000	393.012
	342.0000	392.710
	344.0000	392.409
	346.0000	392.107
	348.0000	392.208
	350.0000	392.308
	352.0000	392.409
	354.0000	392.553
	356.0000	392.697
	358.0000	392.841
	360.0000	392.607
	362.0000	392.374
	364.0000	392.140
	366.0000	392.042
	368.0000	391.944
	370.0000	391.846
	372.0000	391.939
	374.0000	392.031
	376.0000	392.124
	378.0000	391.942
	380.0000	391.760
	382.0000	391.578
	384.0000	391.697
	386.0000	391.817
	388.0000	391.936
	390.0000	391.718
	392.0000	391.499
	394.0000	391.281
	396.0000	391.312
	398.0000	391.342
	400.0000	391.373
	402.0000	391.514
	404.0000	391.656
	406.0000	391.797
	408.0000	391.488
	410.0000	391.180
	412.0000	390.871
	414.0000	390.746
	416.0000	390.620
	418.0000	390.495
	420.0000	390.653
	422.0000	390.812
	424.0000	390.970
	426.0000	390.941
	428.0000	390.913
	430.0000	390.884
	432.0000	390.764
	434.0000	390.643
	436.0000	390.523
	438.0000	390.523
	440.0000	390.522
	442.0000	390.522
	444.0000	390.321
	446.0000	390.119
	448.0000	389.918
	450.0000	390.225
	452.0000	390.533
	454.0000	390.840
	456.0000	390.855
	458.0000	390.871
	460.0000	390.886
	462.0000	390.531
	464.0000	390.177
	466.0000	389.822
	468.0000	389.820
	470.0000	389.819
	472.0000	389.817
	474.0000	389.871
	476.0000	389.924
	478.0000	389.978
	480.0000	389.864
	482.0000	389.751
	484.0000	389.637
	486.0000	389.544
	488.0000	389.452
	490.0000	389.359
	492.0000	389.251
	494.0000	389.143
	496.0000	389.035
	498.0000	388.980
	500.0000	388.925
	502.0000	388.870
	504.0000	388.885
	506.0000	388.899
	508.0000	388.914
	510.0000	388.808
	512.0000	388.703
	514.0000	388.597
	516.0000	388.661
	518.0000	388.726
	520.0000	388.790
	522.0000	388.760
	524.0000	388.730
	526.0000	388.700
	528.0000	388.770
	530.0000	388.839
	532.0000	388.909
	534.0000	388.626
	536.0000	388.344
	538.0000	388.061
	540.0000	388.097
	542.0000	388.132
	544.0000	388.168
	546.0000	388.056
	548.0000	387.943
	550.0000	387.831
	552.0000	388.016
	554.0000	388.200
	556.0000	388.385
	558.0000	388.276
	560.0000	388.168
	562.0000	388.059
	564.0000	387.882
	566.0000	387.705
	568.0000	387.528
	570.0000	387.470
	572.0000	387.412
	574.0000	387.354
	576.0000	387.361
	578.0000	387.369
	580.0000	387.376
	582.0000	387.400
	584.0000	387.424
	586.0000	387.448
	588.0000	387.450
	590.0000	387.453
	592.0000	387.455
	594.0000	387.252
	596.0000	387.048
	598.0000	386.845
	600.0000	386.876

