Data	Set	Name:	Wavelength	Pair	2
Analyst:	

Created:	13:44:57	03/20/15
Data:	Original

Instrument	Type:	RF-5301PC
Wavelength:	EX:549.0nm	EM:563.0nm
Slit	Width:	EX:5.0nm	EM:5.0nm
Acquisition	Ra	2.000	Seconds
Reaction	Time:	600.000	Seconds
Sensitivity:	High
Response	Time:	Auto	
Shutter	Mode:	Auto,	Closed

	Time(sec)	Intensity
	0.0000	388.862
	2.0000	388.862
	4.0000	388.862
	6.0000	388.832
	8.0000	388.802
	10.0000	388.772
	12.0000	388.595
	14.0000	388.417
	16.0000	388.240
	18.0000	388.226
	20.0000	388.212
	22.0000	388.198
	24.0000	388.323
	26.0000	388.447
	28.0000	388.572
	30.0000	388.392
	32.0000	388.211
	34.0000	388.031
	36.0000	387.879
	38.0000	387.727
	40.0000	387.575
	42.0000	387.764
	44.0000	387.953
	46.0000	388.142
	48.0000	388.071
	50.0000	388.000
	52.0000	387.929
	54.0000	387.916
	56.0000	387.902
	58.0000	387.889
	60.0000	387.751
	62.0000	387.613
	64.0000	387.475
	66.0000	387.586
	68.0000	387.697
	70.0000	387.808
	72.0000	387.790
	74.0000	387.771
	76.0000	387.753
	78.0000	387.594
	80.0000	387.434
	82.0000	387.275
	84.0000	387.125
	86.0000	386.974
	88.0000	386.824
	90.0000	387.174
	92.0000	387.523
	94.0000	387.873
	96.0000	387.855
	98.0000	387.838
	100.0000	387.820
	102.0000	387.766
	104.0000	387.711
	106.0000	387.657
	108.0000	387.605
	110.0000	387.554
	112.0000	387.502
	114.0000	387.153
	116.0000	386.804
	118.0000	386.455
	120.0000	386.651
	122.0000	386.847
	124.0000	387.043
	126.0000	386.817
	128.0000	386.592
	130.0000	386.366
	132.0000	386.780
	134.0000	387.193
	136.0000	387.607
	138.0000	387.503
	140.0000	387.399
	142.0000	387.295
	144.0000	387.353
	146.0000	387.410
	148.0000	387.468
	150.0000	387.391
	152.0000	387.313
	154.0000	387.236
	156.0000	387.277
	158.0000	387.319
	160.0000	387.360
	162.0000	387.332
	164.0000	387.305
	166.0000	387.277
	168.0000	387.203
	170.0000	387.130
	172.0000	387.056
	174.0000	387.099
	176.0000	387.142
	178.0000	387.185
	180.0000	387.040
	182.0000	386.896
	184.0000	386.751
	186.0000	386.721
	188.0000	386.692
	190.0000	386.662
	192.0000	386.597
	194.0000	386.532
	196.0000	386.467
	198.0000	386.536
	200.0000	386.604
	202.0000	386.673
	204.0000	386.642
	206.0000	386.610
	208.0000	386.579
	210.0000	386.567
	212.0000	386.556
	214.0000	386.544
	216.0000	386.541
	218.0000	386.537
	220.0000	386.534
	222.0000	386.637
	224.0000	386.740
	226.0000	386.843
	228.0000	386.695
	230.0000	386.546
	232.0000	386.398
	234.0000	386.490
	236.0000	386.582
	238.0000	386.674
	240.0000	386.734
	242.0000	386.793
	244.0000	386.853
	246.0000	386.787
	248.0000	386.721
	250.0000	386.655
	252.0000	386.472
	254.0000	386.290
	256.0000	386.107
	258.0000	386.133
	260.0000	386.158
	262.0000	386.184
	264.0000	386.487
	266.0000	386.791
	268.0000	387.094
	270.0000	386.903
	272.0000	386.713
	274.0000	386.522
	276.0000	386.442
	278.0000	386.363
	280.0000	386.283
	282.0000	386.372
	284.0000	386.460
	286.0000	386.549
	288.0000	386.224
	290.0000	385.900
	292.0000	385.575
	294.0000	385.601
	296.0000	385.626
	298.0000	385.652
	300.0000	385.699
	302.0000	385.746
	304.0000	385.793
	306.0000	386.053
	308.0000	386.314
	310.0000	386.574
	312.0000	386.313
	314.0000	386.053
	316.0000	385.792
	318.0000	386.037
	320.0000	386.283
	322.0000	386.528
	324.0000	386.450
	326.0000	386.371
	328.0000	386.293
	330.0000	386.077
	332.0000	385.860
	334.0000	385.644
	336.0000	385.714
	338.0000	385.785
	340.0000	385.855
	342.0000	385.764
	344.0000	385.673
	346.0000	385.582
	348.0000	385.542
	350.0000	385.501
	352.0000	385.461
	354.0000	385.628
	356.0000	385.796
	358.0000	385.963
	360.0000	385.890
	362.0000	385.817
	364.0000	385.744
	366.0000	385.852
	368.0000	385.959
	370.0000	386.067
	372.0000	385.991
	374.0000	385.915
	376.0000	385.839
	378.0000	385.689
	380.0000	385.539
	382.0000	385.389
	384.0000	385.642
	386.0000	385.895
	388.0000	386.148
	390.0000	385.746
	392.0000	385.344
	394.0000	384.942
	396.0000	385.302
	398.0000	385.663
	400.0000	386.023
	402.0000	385.851
	404.0000	385.678
	406.0000	385.506
	408.0000	385.531
	410.0000	385.556
	412.0000	385.581
	414.0000	385.447
	416.0000	385.314
	418.0000	385.180
	420.0000	385.483
	422.0000	385.785
	424.0000	386.088
	426.0000	385.749
	428.0000	385.411
	430.0000	385.072
	432.0000	385.088
	434.0000	385.104
	436.0000	385.120
	438.0000	385.233
	440.0000	385.345
	442.0000	385.458
	444.0000	385.123
	446.0000	384.789
	448.0000	384.454
	450.0000	384.439
	452.0000	384.425
	454.0000	384.410
	456.0000	384.710
	458.0000	385.011
	460.0000	385.311
	462.0000	385.362
	464.0000	385.413
	466.0000	385.464
	468.0000	385.370
	470.0000	385.277
	472.0000	385.183
	474.0000	385.047
	476.0000	384.910
	478.0000	384.774
	480.0000	384.647
	482.0000	384.521
	484.0000	384.394
	486.0000	384.608
	488.0000	384.823
	490.0000	385.037
	492.0000	384.782
	494.0000	384.528
	496.0000	384.273
	498.0000	384.333
	500.0000	384.392
	502.0000	384.452
	504.0000	384.659
	506.0000	384.867
	508.0000	385.074
	510.0000	385.075
	512.0000	385.076
	514.0000	385.077
	516.0000	384.775
	518.0000	384.472
	520.0000	384.170
	522.0000	384.203
	524.0000	384.237
	526.0000	384.270
	528.0000	384.291
	530.0000	384.313
	532.0000	384.334
	534.0000	384.401
	536.0000	384.469
	538.0000	384.536
	540.0000	384.478
	542.0000	384.420
	544.0000	384.362
	546.0000	384.423
	548.0000	384.483
	550.0000	384.544
	552.0000	384.373
	554.0000	384.201
	556.0000	384.030
	558.0000	384.190
	560.0000	384.350
	562.0000	384.510
	564.0000	384.429
	566.0000	384.347
	568.0000	384.266
	570.0000	384.415
	572.0000	384.565
	574.0000	384.714
	576.0000	384.546
	578.0000	384.379
	580.0000	384.211
	582.0000	384.208
	584.0000	384.206
	586.0000	384.203
	588.0000	384.251
	590.0000	384.298
	592.0000	384.346
	594.0000	384.397
	596.0000	384.448
	598.0000	384.499
	600.0000	384.178

