Data	Set	Name:	Wavelength	Pair	1
Analyst:	

Created:	14:26:19	03/20/15
Data:	Original

Instrument	Type:	RF-5301PC
Wavelength:	EX:495.0nm	EM:520.0nm
Slit	Width:	EX:5.0nm	EM:5.0nm
Acquisition	Ra	2.000	Seconds
Reaction	Time:	600.000	Seconds
Sensitivity:	High
Response	Time:	Auto	
Shutter	Mode:	Auto,	Closed

	Time(sec)	Intensity
	0.0000	377.571
	2.0000	377.571
	4.0000	377.571
	6.0000	377.097
	8.0000	376.623
	10.0000	376.149
	12.0000	376.163
	14.0000	376.176
	16.0000	376.190
	18.0000	375.919
	20.0000	375.648
	22.0000	375.377
	24.0000	375.248
	26.0000	375.119
	28.0000	374.990
	30.0000	375.266
	32.0000	375.541
	34.0000	375.817
	36.0000	375.604
	38.0000	375.392
	40.0000	375.179
	42.0000	375.173
	44.0000	375.167
	46.0000	375.161
	48.0000	375.023
	50.0000	374.886
	52.0000	374.748
	54.0000	374.843
	56.0000	374.937
	58.0000	375.032
	60.0000	374.696
	62.0000	374.360
	64.0000	374.024
	66.0000	373.925
	68.0000	373.826
	70.0000	373.727
	72.0000	373.820
	74.0000	373.912
	76.0000	374.005
	78.0000	374.103
	80.0000	374.202
	82.0000	374.300
	84.0000	374.404
	86.0000	374.509
	88.0000	374.613
	90.0000	374.565
	92.0000	374.516
	94.0000	374.468
	96.0000	374.251
	98.0000	374.034
	100.0000	373.817
	102.0000	373.893
	104.0000	373.968
	106.0000	374.044
	108.0000	373.711
	110.0000	373.377
	112.0000	373.044
	114.0000	373.053
	116.0000	373.063
	118.0000	373.072
	120.0000	372.975
	122.0000	372.879
	124.0000	372.782
	126.0000	372.719
	128.0000	372.655
	130.0000	372.592
	132.0000	372.576
	134.0000	372.559
	136.0000	372.543
	138.0000	372.555
	140.0000	372.566
	142.0000	372.578
	144.0000	372.500
	146.0000	372.423
	148.0000	372.345
	150.0000	372.420
	152.0000	372.495
	154.0000	372.570
	156.0000	372.407
	158.0000	372.245
	160.0000	372.082
	162.0000	372.163
	164.0000	372.244
	166.0000	372.325
	168.0000	372.184
	170.0000	372.042
	172.0000	371.901
	174.0000	372.136
	176.0000	372.370
	178.0000	372.605
	180.0000	372.270
	182.0000	371.936
	184.0000	371.601
	186.0000	371.437
	188.0000	371.272
	190.0000	371.108
	192.0000	371.243
	194.0000	371.379
	196.0000	371.514
	198.0000	371.558
	200.0000	371.602
	202.0000	371.646
	204.0000	371.424
	206.0000	371.202
	208.0000	370.980
	210.0000	371.175
	212.0000	371.369
	214.0000	371.564
	216.0000	371.364
	218.0000	371.163
	220.0000	370.963
	222.0000	370.856
	224.0000	370.748
	226.0000	370.641
	228.0000	370.644
	230.0000	370.647
	232.0000	370.650
	234.0000	370.594
	236.0000	370.537
	238.0000	370.481
	240.0000	370.353
	242.0000	370.225
	244.0000	370.097
	246.0000	370.211
	248.0000	370.325
	250.0000	370.439
	252.0000	370.179
	254.0000	369.918
	256.0000	369.658
	258.0000	369.647
	260.0000	369.636
	262.0000	369.625
	264.0000	369.585
	266.0000	369.545
	268.0000	369.505
	270.0000	369.631
	272.0000	369.756
	274.0000	369.882
	276.0000	369.732
	278.0000	369.583
	280.0000	369.433
	282.0000	369.534
	284.0000	369.636
	286.0000	369.737
	288.0000	369.651
	290.0000	369.565
	292.0000	369.479
	294.0000	369.397
	296.0000	369.314
	298.0000	369.232
	300.0000	369.176
	302.0000	369.120
	304.0000	369.064
	306.0000	368.957
	308.0000	368.850
	310.0000	368.743
	312.0000	368.821
	314.0000	368.899
	316.0000	368.977
	318.0000	368.972
	320.0000	368.968
	322.0000	368.963
	324.0000	368.957
	326.0000	368.952
	328.0000	368.946
	330.0000	369.116
	332.0000	369.285
	334.0000	369.455
	336.0000	369.050
	338.0000	368.644
	340.0000	368.239
	342.0000	368.544
	344.0000	368.848
	346.0000	369.153
	348.0000	369.097
	350.0000	369.041
	352.0000	368.985
	354.0000	368.514
	356.0000	368.043
	358.0000	367.572
	360.0000	367.656
	362.0000	367.741
	364.0000	367.825
	366.0000	367.998
	368.0000	368.170
	370.0000	368.343
	372.0000	368.087
	374.0000	367.832
	376.0000	367.576
	378.0000	367.686
	380.0000	367.795
	382.0000	367.905
	384.0000	367.809
	386.0000	367.714
	388.0000	367.618
	390.0000	367.631
	392.0000	367.645
	394.0000	367.658
	396.0000	367.284
	398.0000	366.909
	400.0000	366.535
	402.0000	366.709
	404.0000	366.882
	406.0000	367.056
	408.0000	367.158
	410.0000	367.260
	412.0000	367.362
	414.0000	367.375
	416.0000	367.389
	418.0000	367.402
	420.0000	367.256
	422.0000	367.111
	424.0000	366.965
	426.0000	366.867
	428.0000	366.768
	430.0000	366.670
	432.0000	366.598
	434.0000	366.526
	436.0000	366.454
	438.0000	366.401
	440.0000	366.348
	442.0000	366.295
	444.0000	366.182
	446.0000	366.069
	448.0000	365.956
	450.0000	366.057
	452.0000	366.157
	454.0000	366.258
	456.0000	366.044
	458.0000	365.831
	460.0000	365.617
	462.0000	365.714
	464.0000	365.811
	466.0000	365.908
	468.0000	365.963
	470.0000	366.018
	472.0000	366.073
	474.0000	366.064
	476.0000	366.055
	478.0000	366.046
	480.0000	365.974
	482.0000	365.901
	484.0000	365.829
	486.0000	365.867
	488.0000	365.906
	490.0000	365.944
	492.0000	365.781
	494.0000	365.619
	496.0000	365.456
	498.0000	365.595
	500.0000	365.735
	502.0000	365.874
	504.0000	365.767
	506.0000	365.660
	508.0000	365.553
	510.0000	365.363
	512.0000	365.174
	514.0000	364.984
	516.0000	364.959
	518.0000	364.933
	520.0000	364.908
	522.0000	364.695
	524.0000	364.481
	526.0000	364.268
	528.0000	364.485
	530.0000	364.703
	532.0000	364.920
	534.0000	364.930
	536.0000	364.941
	538.0000	364.951
	540.0000	364.945
	542.0000	364.939
	544.0000	364.933
	546.0000	364.933
	548.0000	364.932
	550.0000	364.932
	552.0000	364.710
	554.0000	364.489
	556.0000	364.267
	558.0000	364.278
	560.0000	364.288
	562.0000	364.299
	564.0000	364.307
	566.0000	364.316
	568.0000	364.324
	570.0000	363.947
	572.0000	363.569
	574.0000	363.192
	576.0000	363.639
	578.0000	364.085
	580.0000	364.532
	582.0000	364.426
	584.0000	364.320
	586.0000	364.214
	588.0000	363.932
	590.0000	363.649
	592.0000	363.367
	594.0000	363.331
	596.0000	363.294
	598.0000	363.258
	600.0000	363.387

