Data	Set	Name:	Wavelength	Pair	2
Analyst:	

Created:	14:26:19	03/20/15
Data:	Original

Instrument	Type:	RF-5301PC
Wavelength:	EX:549.0nm	EM:563.0nm
Slit	Width:	EX:5.0nm	EM:5.0nm
Acquisition	Ra	2.000	Seconds
Reaction	Time:	600.000	Seconds
Sensitivity:	High
Response	Time:	Auto	
Shutter	Mode:	Auto,	Closed

	Time(sec)	Intensity
	0.0000	379.893
	2.0000	379.893
	4.0000	379.893
	6.0000	379.708
	8.0000	379.523
	10.0000	379.338
	12.0000	379.642
	14.0000	379.946
	16.0000	380.250
	18.0000	379.977
	20.0000	379.704
	22.0000	379.431
	24.0000	379.317
	26.0000	379.202
	28.0000	379.088
	30.0000	379.153
	32.0000	379.219
	34.0000	379.284
	36.0000	379.318
	38.0000	379.352
	40.0000	379.386
	42.0000	379.210
	44.0000	379.035
	46.0000	378.859
	48.0000	378.834
	50.0000	378.810
	52.0000	378.785
	54.0000	378.812
	56.0000	378.839
	58.0000	378.866
	60.0000	378.685
	62.0000	378.504
	64.0000	378.323
	66.0000	378.264
	68.0000	378.206
	70.0000	378.147
	72.0000	378.123
	74.0000	378.099
	76.0000	378.075
	78.0000	378.109
	80.0000	378.144
	82.0000	378.178
	84.0000	378.135
	86.0000	378.092
	88.0000	378.049
	90.0000	378.103
	92.0000	378.158
	94.0000	378.212
	96.0000	378.099
	98.0000	377.986
	100.0000	377.873
	102.0000	378.126
	104.0000	378.380
	106.0000	378.633
	108.0000	378.224
	110.0000	377.815
	112.0000	377.406
	114.0000	377.449
	116.0000	377.492
	118.0000	377.535
	120.0000	377.739
	122.0000	377.944
	124.0000	378.148
	126.0000	377.793
	128.0000	377.439
	130.0000	377.084
	132.0000	377.286
	134.0000	377.487
	136.0000	377.689
	138.0000	377.766
	140.0000	377.844
	142.0000	377.921
	144.0000	377.784
	146.0000	377.647
	148.0000	377.510
	150.0000	377.731
	152.0000	377.952
	154.0000	378.173
	156.0000	377.659
	158.0000	377.144
	160.0000	376.630
	162.0000	376.799
	164.0000	376.969
	166.0000	377.138
	168.0000	377.025
	170.0000	376.912
	172.0000	376.799
	174.0000	376.928
	176.0000	377.056
	178.0000	377.185
	180.0000	377.265
	182.0000	377.344
	184.0000	377.424
	186.0000	377.305
	188.0000	377.187
	190.0000	377.068
	192.0000	377.253
	194.0000	377.439
	196.0000	377.624
	198.0000	377.383
	200.0000	377.141
	202.0000	376.900
	204.0000	376.920
	206.0000	376.940
	208.0000	376.960
	210.0000	376.889
	212.0000	376.818
	214.0000	376.747
	216.0000	376.947
	218.0000	377.146
	220.0000	377.346
	222.0000	377.368
	224.0000	377.389
	226.0000	377.411
	228.0000	377.023
	230.0000	376.636
	232.0000	376.248
	234.0000	376.428
	236.0000	376.608
	238.0000	376.788
	240.0000	376.554
	242.0000	376.319
	244.0000	376.085
	246.0000	376.288
	248.0000	376.491
	250.0000	376.694
	252.0000	376.740
	254.0000	376.787
	256.0000	376.833
	258.0000	376.695
	260.0000	376.558
	262.0000	376.420
	264.0000	376.473
	266.0000	376.527
	268.0000	376.580
	270.0000	376.526
	272.0000	376.472
	274.0000	376.418
	276.0000	376.746
	278.0000	377.074
	280.0000	377.402
	282.0000	377.032
	284.0000	376.662
	286.0000	376.292
	288.0000	376.114
	290.0000	375.937
	292.0000	375.759
	294.0000	376.052
	296.0000	376.344
	298.0000	376.637
	300.0000	376.384
	302.0000	376.130
	304.0000	375.877
	306.0000	375.933
	308.0000	375.989
	310.0000	376.045
	312.0000	375.942
	314.0000	375.840
	316.0000	375.737
	318.0000	375.774
	320.0000	375.811
	322.0000	375.848
	324.0000	376.058
	326.0000	376.269
	328.0000	376.479
	330.0000	376.361
	332.0000	376.242
	334.0000	376.124
	336.0000	376.083
	338.0000	376.042
	340.0000	376.001
	342.0000	376.046
	344.0000	376.090
	346.0000	376.135
	348.0000	376.114
	350.0000	376.092
	352.0000	376.071
	354.0000	375.930
	356.0000	375.790
	358.0000	375.649
	360.0000	375.707
	362.0000	375.765
	364.0000	375.823
	366.0000	375.867
	368.0000	375.912
	370.0000	375.956
	372.0000	375.541
	374.0000	375.126
	376.0000	374.711
	378.0000	375.171
	380.0000	375.630
	382.0000	376.090
	384.0000	376.097
	386.0000	376.103
	388.0000	376.110
	390.0000	376.095
	392.0000	376.079
	394.0000	376.064
	396.0000	375.678
	398.0000	375.292
	400.0000	374.906
	402.0000	375.060
	404.0000	375.213
	406.0000	375.367
	408.0000	375.319
	410.0000	375.272
	412.0000	375.224
	414.0000	375.319
	416.0000	375.414
	418.0000	375.509
	420.0000	375.928
	422.0000	376.348
	424.0000	376.767
	426.0000	376.135
	428.0000	375.503
	430.0000	374.871
	432.0000	375.292
	434.0000	375.713
	436.0000	376.134
	438.0000	375.887
	440.0000	375.639
	442.0000	375.392
	444.0000	375.318
	446.0000	375.243
	448.0000	375.169
	450.0000	375.162
	452.0000	375.154
	454.0000	375.147
	456.0000	374.988
	458.0000	374.829
	460.0000	374.670
	462.0000	374.782
	464.0000	374.895
	466.0000	375.007
	468.0000	374.756
	470.0000	374.506
	472.0000	374.255
	474.0000	374.387
	476.0000	374.520
	478.0000	374.652
	480.0000	374.886
	482.0000	375.119
	484.0000	375.353
	486.0000	375.282
	488.0000	375.212
	490.0000	375.141
	492.0000	375.058
	494.0000	374.975
	496.0000	374.892
	498.0000	374.906
	500.0000	374.920
	502.0000	374.934
	504.0000	375.056
	506.0000	375.177
	508.0000	375.299
	510.0000	375.134
	512.0000	374.969
	514.0000	374.804
	516.0000	374.978
	518.0000	375.151
	520.0000	375.325
	522.0000	375.209
	524.0000	375.093
	526.0000	374.977
	528.0000	374.810
	530.0000	374.643
	532.0000	374.476
	534.0000	374.536
	536.0000	374.596
	538.0000	374.656
	540.0000	374.735
	542.0000	374.813
	544.0000	374.892
	546.0000	374.728
	548.0000	374.565
	550.0000	374.401
	552.0000	374.327
	554.0000	374.254
	556.0000	374.180
	558.0000	374.165
	560.0000	374.151
	562.0000	374.136
	564.0000	374.257
	566.0000	374.378
	568.0000	374.499
	570.0000	374.459
	572.0000	374.420
	574.0000	374.380
	576.0000	374.508
	578.0000	374.636
	580.0000	374.764
	582.0000	374.536
	584.0000	374.309
	586.0000	374.081
	588.0000	374.306
	590.0000	374.532
	592.0000	374.757
	594.0000	374.617
	596.0000	374.476
	598.0000	374.336
	600.0000	374.213

