Data	Set	Name:	Wavelength	Pair	2
Analyst:	

Created:	15:07:40	03/20/15
Data:	Original

Instrument	Type:	RF-5301PC
Wavelength:	EX:549.0nm	EM:563.0nm
Slit	Width:	EX:5.0nm	EM:5.0nm
Acquisition	Ra	2.000	Seconds
Reaction	Time:	600.000	Seconds
Sensitivity:	High
Response	Time:	Auto	
Shutter	Mode:	Auto,	Closed

	Time(sec)	Intensity
	0.0000	372.249
	2.0000	372.249
	4.0000	372.249
	6.0000	372.519
	8.0000	372.790
	10.0000	373.060
	12.0000	372.854
	14.0000	372.648
	16.0000	372.442
	18.0000	372.226
	20.0000	372.010
	22.0000	371.794
	24.0000	372.027
	26.0000	372.261
	28.0000	372.494
	30.0000	372.084
	32.0000	371.674
	34.0000	371.264
	36.0000	371.470
	38.0000	371.675
	40.0000	371.881
	42.0000	372.016
	44.0000	372.152
	46.0000	372.287
	48.0000	372.216
	50.0000	372.146
	52.0000	372.075
	54.0000	371.834
	56.0000	371.593
	58.0000	371.352
	60.0000	371.545
	62.0000	371.737
	64.0000	371.930
	66.0000	371.682
	68.0000	371.435
	70.0000	371.187
	72.0000	371.390
	74.0000	371.593
	76.0000	371.796
	78.0000	371.610
	80.0000	371.423
	82.0000	371.237
	84.0000	371.419
	86.0000	371.600
	88.0000	371.782
	90.0000	371.698
	92.0000	371.613
	94.0000	371.529
	96.0000	371.425
	98.0000	371.322
	100.0000	371.218
	102.0000	371.356
	104.0000	371.495
	106.0000	371.633
	108.0000	371.273
	110.0000	370.914
	112.0000	370.554
	114.0000	370.583
	116.0000	370.611
	118.0000	370.640
	120.0000	370.763
	122.0000	370.887
	124.0000	371.010
	126.0000	371.156
	128.0000	371.301
	130.0000	371.447
	132.0000	371.394
	134.0000	371.340
	136.0000	371.287
	138.0000	371.288
	140.0000	371.290
	142.0000	371.291
	144.0000	371.527
	146.0000	371.762
	148.0000	371.998
	150.0000	371.980
	152.0000	371.963
	154.0000	371.945
	156.0000	371.687
	158.0000	371.428
	160.0000	371.170
	162.0000	371.124
	164.0000	371.079
	166.0000	371.033
	168.0000	371.169
	170.0000	371.306
	172.0000	371.442
	174.0000	371.152
	176.0000	370.861
	178.0000	370.571
	180.0000	370.648
	182.0000	370.725
	184.0000	370.802
	186.0000	370.922
	188.0000	371.041
	190.0000	371.161
	192.0000	371.281
	194.0000	371.400
	196.0000	371.520
	198.0000	371.659
	200.0000	371.799
	202.0000	371.938
	204.0000	371.475
	206.0000	371.012
	208.0000	370.549
	210.0000	370.580
	212.0000	370.611
	214.0000	370.642
	216.0000	370.690
	218.0000	370.738
	220.0000	370.786
	222.0000	370.718
	224.0000	370.649
	226.0000	370.581
	228.0000	370.884
	230.0000	371.187
	232.0000	371.490
	234.0000	371.205
	236.0000	370.919
	238.0000	370.634
	240.0000	370.582
	242.0000	370.529
	244.0000	370.477
	246.0000	370.628
	248.0000	370.780
	250.0000	370.931
	252.0000	370.999
	254.0000	371.068
	256.0000	371.136
	258.0000	370.895
	260.0000	370.653
	262.0000	370.412
	264.0000	370.512
	266.0000	370.611
	268.0000	370.711
	270.0000	370.777
	272.0000	370.843
	274.0000	370.909
	276.0000	370.747
	278.0000	370.586
	280.0000	370.424
	282.0000	370.441
	284.0000	370.457
	286.0000	370.474
	288.0000	370.486
	290.0000	370.499
	292.0000	370.511
	294.0000	370.370
	296.0000	370.229
	298.0000	370.088
	300.0000	370.275
	302.0000	370.461
	304.0000	370.648
	306.0000	370.380
	308.0000	370.111
	310.0000	369.843
	312.0000	369.945
	314.0000	370.046
	316.0000	370.148
	318.0000	370.139
	320.0000	370.131
	322.0000	370.122
	324.0000	370.134
	326.0000	370.145
	328.0000	370.157
	330.0000	369.880
	332.0000	369.602
	334.0000	369.325
	336.0000	369.320
	338.0000	369.316
	340.0000	369.311
	342.0000	369.429
	344.0000	369.546
	346.0000	369.664
	348.0000	369.644
	350.0000	369.625
	352.0000	369.605
	354.0000	369.571
	356.0000	369.537
	358.0000	369.503
	360.0000	369.416
	362.0000	369.330
	364.0000	369.243
	366.0000	369.407
	368.0000	369.570
	370.0000	369.734
	372.0000	369.604
	374.0000	369.473
	376.0000	369.343
	378.0000	369.327
	380.0000	369.310
	382.0000	369.294
	384.0000	369.176
	386.0000	369.058
	388.0000	368.940
	390.0000	369.218
	392.0000	369.495
	394.0000	369.773
	396.0000	369.626
	398.0000	369.480
	400.0000	369.333
	402.0000	369.271
	404.0000	369.209
	406.0000	369.147
	408.0000	369.218
	410.0000	369.288
	412.0000	369.359
	414.0000	369.364
	416.0000	369.370
	418.0000	369.375
	420.0000	369.331
	422.0000	369.286
	424.0000	369.242
	426.0000	369.098
	428.0000	368.953
	430.0000	368.809
	432.0000	368.736
	434.0000	368.662
	436.0000	368.589
	438.0000	368.716
	440.0000	368.843
	442.0000	368.970
	444.0000	369.060
	446.0000	369.149
	448.0000	369.239
	450.0000	368.832
	452.0000	368.425
	454.0000	368.018
	456.0000	368.548
	458.0000	369.079
	460.0000	369.609
	462.0000	369.403
	464.0000	369.196
	466.0000	368.990
	468.0000	368.854
	470.0000	368.717
	472.0000	368.581
	474.0000	368.637
	476.0000	368.693
	478.0000	368.749
	480.0000	368.644
	482.0000	368.540
	484.0000	368.435
	486.0000	368.510
	488.0000	368.586
	490.0000	368.661
	492.0000	368.450
	494.0000	368.238
	496.0000	368.027
	498.0000	368.147
	500.0000	368.268
	502.0000	368.388
	504.0000	368.501
	506.0000	368.613
	508.0000	368.726
	510.0000	368.546
	512.0000	368.366
	514.0000	368.186
	516.0000	368.177
	518.0000	368.168
	520.0000	368.159
	522.0000	367.932
	524.0000	367.705
	526.0000	367.478
	528.0000	367.912
	530.0000	368.345
	532.0000	368.779
	534.0000	368.501
	536.0000	368.224
	538.0000	367.946
	540.0000	368.015
	542.0000	368.083
	544.0000	368.152
	546.0000	368.003
	548.0000	367.853
	550.0000	367.704
	552.0000	367.767
	554.0000	367.831
	556.0000	367.894
	558.0000	367.971
	560.0000	368.049
	562.0000	368.126
	564.0000	368.120
	566.0000	368.115
	568.0000	368.109
	570.0000	368.016
	572.0000	367.924
	574.0000	367.831
	576.0000	367.647
	578.0000	367.464
	580.0000	367.280
	582.0000	367.558
	584.0000	367.836
	586.0000	368.114
	588.0000	368.196
	590.0000	368.279
	592.0000	368.361
	594.0000	368.044
	596.0000	367.726
	598.0000	367.409
	600.0000	367.416

