Data	Set	Name:	Wavelength	Pair	3
Analyst:	

Created:	15:07:40	03/20/15
Data:	Original

Instrument	Type:	RF-5301PC
Wavelength:	EX:648.0nm	EM:668.0nm
Slit	Width:	EX:5.0nm	EM:5.0nm
Acquisition	Ra	2.000	Seconds
Reaction	Time:	600.000	Seconds
Sensitivity:	High
Response	Time:	Auto	
Shutter	Mode:	Auto,	Closed

	Time(sec)	Intensity
	0.0000	88.190
	2.0000	88.190
	4.0000	88.190
	6.0000	88.413
	8.0000	88.635
	10.0000	88.858
	12.0000	88.704
	14.0000	88.550
	16.0000	88.396
	18.0000	88.404
	20.0000	88.412
	22.0000	88.420
	24.0000	88.315
	26.0000	88.210
	28.0000	88.105
	30.0000	88.206
	32.0000	88.306
	34.0000	88.407
	36.0000	88.389
	38.0000	88.371
	40.0000	88.353
	42.0000	88.184
	44.0000	88.015
	46.0000	87.846
	48.0000	87.973
	50.0000	88.099
	52.0000	88.226
	54.0000	88.147
	56.0000	88.069
	58.0000	87.990
	60.0000	88.128
	62.0000	88.267
	64.0000	88.405
	66.0000	88.357
	68.0000	88.308
	70.0000	88.260
	72.0000	88.113
	74.0000	87.966
	76.0000	87.819
	78.0000	87.950
	80.0000	88.081
	82.0000	88.212
	84.0000	88.181
	86.0000	88.150
	88.0000	88.119
	90.0000	88.030
	92.0000	87.942
	94.0000	87.853
	96.0000	87.941
	98.0000	88.030
	100.0000	88.118
	102.0000	88.059
	104.0000	88.000
	106.0000	87.941
	108.0000	87.920
	110.0000	87.898
	112.0000	87.877
	114.0000	87.829
	116.0000	87.782
	118.0000	87.734
	120.0000	87.820
	122.0000	87.907
	124.0000	87.993
	126.0000	87.880
	128.0000	87.767
	130.0000	87.654
	132.0000	87.690
	134.0000	87.727
	136.0000	87.763
	138.0000	87.780
	140.0000	87.798
	142.0000	87.815
	144.0000	87.719
	146.0000	87.623
	148.0000	87.527
	150.0000	87.523
	152.0000	87.519
	154.0000	87.515
	156.0000	87.570
	158.0000	87.626
	160.0000	87.681
	162.0000	87.548
	164.0000	87.414
	166.0000	87.281
	168.0000	87.465
	170.0000	87.648
	172.0000	87.832
	174.0000	87.678
	176.0000	87.523
	178.0000	87.369
	180.0000	87.428
	182.0000	87.487
	184.0000	87.546
	186.0000	87.533
	188.0000	87.520
	190.0000	87.507
	192.0000	87.521
	194.0000	87.536
	196.0000	87.550
	198.0000	87.415
	200.0000	87.281
	202.0000	87.146
	204.0000	87.075
	206.0000	87.005
	208.0000	86.934
	210.0000	86.948
	212.0000	86.961
	214.0000	86.975
	216.0000	87.126
	218.0000	87.276
	220.0000	87.427
	222.0000	87.269
	224.0000	87.112
	226.0000	86.954
	228.0000	87.076
	230.0000	87.198
	232.0000	87.320
	234.0000	87.164
	236.0000	87.009
	238.0000	86.853
	240.0000	86.824
	242.0000	86.796
	244.0000	86.767
	246.0000	86.735
	248.0000	86.704
	250.0000	86.672
	252.0000	86.774
	254.0000	86.876
	256.0000	86.978
	258.0000	86.968
	260.0000	86.957
	262.0000	86.947
	264.0000	86.934
	266.0000	86.922
	268.0000	86.909
	270.0000	86.939
	272.0000	86.968
	274.0000	86.998
	276.0000	86.886
	278.0000	86.773
	280.0000	86.661
	282.0000	86.711
	284.0000	86.760
	286.0000	86.810
	288.0000	86.707
	290.0000	86.603
	292.0000	86.500
	294.0000	86.416
	296.0000	86.333
	298.0000	86.249
	300.0000	86.342
	302.0000	86.434
	304.0000	86.527
	306.0000	86.422
	308.0000	86.316
	310.0000	86.211
	312.0000	86.222
	314.0000	86.233
	316.0000	86.244
	318.0000	86.230
	320.0000	86.217
	322.0000	86.203
	324.0000	86.143
	326.0000	86.083
	328.0000	86.023
	330.0000	86.131
	332.0000	86.240
	334.0000	86.348
	336.0000	86.415
	338.0000	86.482
	340.0000	86.549
	342.0000	86.349
	344.0000	86.149
	346.0000	85.949
	348.0000	85.941
	350.0000	85.933
	352.0000	85.925
	354.0000	85.887
	356.0000	85.848
	358.0000	85.810
	360.0000	85.799
	362.0000	85.787
	364.0000	85.776
	366.0000	85.796
	368.0000	85.815
	370.0000	85.835
	372.0000	85.860
	374.0000	85.884
	376.0000	85.909
	378.0000	86.007
	380.0000	86.105
	382.0000	86.203
	384.0000	85.905
	386.0000	85.607
	388.0000	85.309
	390.0000	85.385
	392.0000	85.462
	394.0000	85.538
	396.0000	85.467
	398.0000	85.395
	400.0000	85.324
	402.0000	85.451
	404.0000	85.577
	406.0000	85.704
	408.0000	85.637
	410.0000	85.571
	412.0000	85.504
	414.0000	85.580
	416.0000	85.656
	418.0000	85.732
	420.0000	85.518
	422.0000	85.305
	424.0000	85.091
	426.0000	85.158
	428.0000	85.225
	430.0000	85.292
	432.0000	85.357
	434.0000	85.423
	436.0000	85.488
	438.0000	85.312
	440.0000	85.136
	442.0000	84.960
	444.0000	84.985
	446.0000	85.011
	448.0000	85.036
	450.0000	85.162
	452.0000	85.289
	454.0000	85.415
	456.0000	85.398
	458.0000	85.381
	460.0000	85.364
	462.0000	85.302
	464.0000	85.240
	466.0000	85.178
	468.0000	85.045
	470.0000	84.911
	472.0000	84.778
	474.0000	84.777
	476.0000	84.775
	478.0000	84.774
	480.0000	84.832
	482.0000	84.891
	484.0000	84.949
	486.0000	84.823
	488.0000	84.697
	490.0000	84.571
	492.0000	84.655
	494.0000	84.739
	496.0000	84.823
	498.0000	84.860
	500.0000	84.896
	502.0000	84.933
	504.0000	84.789
	506.0000	84.646
	508.0000	84.502
	510.0000	84.459
	512.0000	84.417
	514.0000	84.374
	516.0000	84.529
	518.0000	84.683
	520.0000	84.838
	522.0000	84.908
	524.0000	84.979
	526.0000	85.049
	528.0000	84.803
	530.0000	84.558
	532.0000	84.312
	534.0000	84.224
	536.0000	84.135
	538.0000	84.047
	540.0000	84.197
	542.0000	84.346
	544.0000	84.496
	546.0000	84.393
	548.0000	84.291
	550.0000	84.188
	552.0000	84.315
	554.0000	84.442
	556.0000	84.569
	558.0000	84.480
	560.0000	84.392
	562.0000	84.303
	564.0000	84.363
	566.0000	84.424
	568.0000	84.484
	570.0000	84.448
	572.0000	84.411
	574.0000	84.375
	576.0000	84.227
	578.0000	84.080
	580.0000	83.932
	582.0000	83.788
	584.0000	83.643
	586.0000	83.499
	588.0000	83.670
	590.0000	83.841
	592.0000	84.012
	594.0000	83.885
	596.0000	83.757
	598.0000	83.630
	600.0000	83.706

