Data	Set	Name:	Wavelength	Pair	1
Analyst:	

Created:	15:49:02	03/20/15
Data:	Original

Instrument	Type:	RF-5301PC
Wavelength:	EX:495.0nm	EM:520.0nm
Slit	Width:	EX:5.0nm	EM:5.0nm
Acquisition	Ra	2.000	Seconds
Reaction	Time:	600.000	Seconds
Sensitivity:	High
Response	Time:	Auto	
Shutter	Mode:	Auto,	Closed

	Time(sec)	Intensity
	0.0000	344.963
	2.0000	344.963
	4.0000	344.963
	6.0000	344.633
	8.0000	344.303
	10.0000	343.973
	12.0000	343.811
	14.0000	343.650
	16.0000	343.488
	18.0000	343.603
	20.0000	343.719
	22.0000	343.834
	24.0000	343.565
	26.0000	343.296
	28.0000	343.027
	30.0000	343.087
	32.0000	343.148
	34.0000	343.208
	36.0000	343.240
	38.0000	343.271
	40.0000	343.303
	42.0000	343.180
	44.0000	343.056
	46.0000	342.933
	48.0000	343.065
	50.0000	343.198
	52.0000	343.330
	54.0000	343.185
	56.0000	343.040
	58.0000	342.895
	60.0000	342.726
	62.0000	342.558
	64.0000	342.389
	66.0000	342.420
	68.0000	342.450
	70.0000	342.481
	72.0000	342.458
	74.0000	342.435
	76.0000	342.412
	78.0000	342.279
	80.0000	342.145
	82.0000	342.012
	84.0000	342.028
	86.0000	342.045
	88.0000	342.061
	90.0000	341.852
	92.0000	341.642
	94.0000	341.433
	96.0000	341.609
	98.0000	341.784
	100.0000	341.960
	102.0000	342.036
	104.0000	342.113
	106.0000	342.189
	108.0000	341.988
	110.0000	341.787
	112.0000	341.586
	114.0000	341.635
	116.0000	341.684
	118.0000	341.733
	120.0000	341.649
	122.0000	341.566
	124.0000	341.482
	126.0000	341.570
	128.0000	341.658
	130.0000	341.746
	132.0000	341.575
	134.0000	341.403
	136.0000	341.232
	138.0000	341.068
	140.0000	340.904
	142.0000	340.740
	144.0000	340.896
	146.0000	341.052
	148.0000	341.208
	150.0000	341.228
	152.0000	341.247
	154.0000	341.267
	156.0000	341.321
	158.0000	341.376
	160.0000	341.430
	162.0000	341.262
	164.0000	341.094
	166.0000	340.926
	168.0000	341.042
	170.0000	341.157
	172.0000	341.273
	174.0000	341.199
	176.0000	341.124
	178.0000	341.050
	180.0000	340.997
	182.0000	340.943
	184.0000	340.890
	186.0000	340.698
	188.0000	340.506
	190.0000	340.314
	192.0000	340.325
	194.0000	340.335
	196.0000	340.346
	198.0000	340.624
	200.0000	340.901
	202.0000	341.179
	204.0000	340.834
	206.0000	340.490
	208.0000	340.145
	210.0000	340.207
	212.0000	340.270
	214.0000	340.332
	216.0000	340.340
	218.0000	340.347
	220.0000	340.355
	222.0000	340.171
	224.0000	339.986
	226.0000	339.802
	228.0000	339.729
	230.0000	339.656
	232.0000	339.583
	234.0000	339.838
	236.0000	340.092
	238.0000	340.347
	240.0000	340.078
	242.0000	339.809
	244.0000	339.540
	246.0000	339.509
	248.0000	339.477
	250.0000	339.446
	252.0000	339.488
	254.0000	339.531
	256.0000	339.573
	258.0000	339.503
	260.0000	339.434
	262.0000	339.364
	264.0000	339.252
	266.0000	339.139
	268.0000	339.027
	270.0000	338.949
	272.0000	338.871
	274.0000	338.793
	276.0000	338.784
	278.0000	338.774
	280.0000	338.765
	282.0000	339.064
	284.0000	339.364
	286.0000	339.663
	288.0000	339.374
	290.0000	339.084
	292.0000	338.795
	294.0000	338.923
	296.0000	339.052
	298.0000	339.180
	300.0000	339.134
	302.0000	339.089
	304.0000	339.043
	306.0000	339.069
	308.0000	339.095
	310.0000	339.121
	312.0000	338.998
	314.0000	338.875
	316.0000	338.752
	318.0000	338.644
	320.0000	338.537
	322.0000	338.429
	324.0000	338.496
	326.0000	338.563
	328.0000	338.630
	330.0000	338.417
	332.0000	338.203
	334.0000	337.990
	336.0000	338.043
	338.0000	338.095
	340.0000	338.148
	342.0000	338.214
	344.0000	338.281
	346.0000	338.347
	348.0000	338.162
	350.0000	337.978
	352.0000	337.793
	354.0000	337.904
	356.0000	338.016
	358.0000	338.127
	360.0000	338.145
	362.0000	338.163
	364.0000	338.181
	366.0000	338.254
	368.0000	338.328
	370.0000	338.401
	372.0000	338.054
	374.0000	337.707
	376.0000	337.360
	378.0000	337.605
	380.0000	337.849
	382.0000	338.094
	384.0000	337.647
	386.0000	337.201
	388.0000	336.754
	390.0000	336.876
	392.0000	336.998
	394.0000	337.120
	396.0000	336.990
	398.0000	336.860
	400.0000	336.730
	402.0000	336.859
	404.0000	336.989
	406.0000	337.118
	408.0000	336.993
	410.0000	336.868
	412.0000	336.743
	414.0000	336.840
	416.0000	336.937
	418.0000	337.034
	420.0000	337.090
	422.0000	337.145
	424.0000	337.201
	426.0000	337.124
	428.0000	337.048
	430.0000	336.971
	432.0000	336.754
	434.0000	336.538
	436.0000	336.321
	438.0000	336.524
	440.0000	336.727
	442.0000	336.930
	444.0000	336.790
	446.0000	336.651
	448.0000	336.511
	450.0000	336.498
	452.0000	336.486
	454.0000	336.473
	456.0000	336.489
	458.0000	336.504
	460.0000	336.520
	462.0000	336.355
	464.0000	336.190
	466.0000	336.025
	468.0000	336.005
	470.0000	335.985
	472.0000	335.965
	474.0000	336.067
	476.0000	336.168
	478.0000	336.270
	480.0000	336.188
	482.0000	336.107
	484.0000	336.025
	486.0000	335.979
	488.0000	335.932
	490.0000	335.886
	492.0000	335.896
	494.0000	335.907
	496.0000	335.917
	498.0000	335.976
	500.0000	336.035
	502.0000	336.094
	504.0000	335.937
	506.0000	335.781
	508.0000	335.624
	510.0000	335.583
	512.0000	335.542
	514.0000	335.501
	516.0000	335.657
	518.0000	335.813
	520.0000	335.969
	522.0000	335.666
	524.0000	335.362
	526.0000	335.059
	528.0000	335.269
	530.0000	335.478
	532.0000	335.688
	534.0000	335.412
	536.0000	335.137
	538.0000	334.861
	540.0000	334.851
	542.0000	334.842
	544.0000	334.832
	546.0000	334.834
	548.0000	334.837
	550.0000	334.839
	552.0000	335.007
	554.0000	335.176
	556.0000	335.344
	558.0000	335.085
	560.0000	334.826
	562.0000	334.567
	564.0000	334.646
	566.0000	334.725
	568.0000	334.804
	570.0000	334.809
	572.0000	334.815
	574.0000	334.820
	576.0000	334.768
	578.0000	334.717
	580.0000	334.665
	582.0000	334.675
	584.0000	334.686
	586.0000	334.696
	588.0000	334.540
	590.0000	334.383
	592.0000	334.227
	594.0000	334.122
	596.0000	334.018
	598.0000	333.913
	600.0000	333.910

