Data	Set	Name:	Wavelength	Pair	1
Analyst:	

Created:	12:01:33	03/20/15
Data:	Original

Instrument	Type:	RF-5301PC
Wavelength:	EX:495.0nm	EM:520.0nm
Slit	Width:	EX:5.0nm	EM:5.0nm
Acquisition	Ra	2.000	Seconds
Reaction	Time:	600.000	Seconds
Sensitivity:	High
Response	Time:	Auto	
Shutter	Mode:	Auto,	Closed

	Time(sec)	Intensity
	0.0000	499.400
	2.0000	499.400
	4.0000	499.400
	6.0000	498.834
	8.0000	498.269
	10.0000	497.703
	12.0000	497.635
	14.0000	497.568
	16.0000	497.500
	18.0000	497.714
	20.0000	497.929
	22.0000	498.143
	24.0000	497.823
	26.0000	497.504
	28.0000	497.184
	30.0000	497.210
	32.0000	497.236
	34.0000	497.262
	36.0000	497.007
	38.0000	496.751
	40.0000	496.496
	42.0000	496.513
	44.0000	496.529
	46.0000	496.546
	48.0000	496.554
	50.0000	496.563
	52.0000	496.571
	54.0000	496.324
	56.0000	496.078
	58.0000	495.831
	60.0000	495.759
	62.0000	495.688
	64.0000	495.616
	66.0000	495.162
	68.0000	494.708
	70.0000	494.254
	72.0000	494.473
	74.0000	494.693
	76.0000	494.912
	78.0000	495.262
	80.0000	495.612
	82.0000	495.962
	84.0000	495.605
	86.0000	495.249
	88.0000	494.892
	90.0000	494.839
	92.0000	494.787
	94.0000	494.734
	96.0000	494.556
	98.0000	494.378
	100.0000	494.200
	102.0000	493.872
	104.0000	493.545
	106.0000	493.217
	108.0000	493.283
	110.0000	493.348
	112.0000	493.414
	114.0000	493.415
	116.0000	493.416
	118.0000	493.417
	120.0000	493.698
	122.0000	493.979
	124.0000	494.260
	126.0000	493.882
	128.0000	493.503
	130.0000	493.125
	132.0000	492.929
	134.0000	492.734
	136.0000	492.538
	138.0000	492.487
	140.0000	492.437
	142.0000	492.386
	144.0000	492.478
	146.0000	492.569
	148.0000	492.661
	150.0000	492.311
	152.0000	491.960
	154.0000	491.610
	156.0000	491.650
	158.0000	491.689
	160.0000	491.729
	162.0000	491.615
	164.0000	491.500
	166.0000	491.386
	168.0000	491.288
	170.0000	491.189
	172.0000	491.091
	174.0000	491.309
	176.0000	491.526
	178.0000	491.744
	180.0000	491.598
	182.0000	491.453
	184.0000	491.307
	186.0000	491.087
	188.0000	490.867
	190.0000	490.647
	192.0000	490.660
	194.0000	490.673
	196.0000	490.686
	198.0000	490.602
	200.0000	490.518
	202.0000	490.434
	204.0000	490.339
	206.0000	490.244
	208.0000	490.149
	210.0000	489.841
	212.0000	489.533
	214.0000	489.225
	216.0000	489.391
	218.0000	489.557
	220.0000	489.723
	222.0000	489.583
	224.0000	489.443
	226.0000	489.303
	228.0000	489.191
	230.0000	489.080
	232.0000	488.968
	234.0000	488.974
	236.0000	488.981
	238.0000	488.987
	240.0000	488.769
	242.0000	488.551
	244.0000	488.333
	246.0000	488.331
	248.0000	488.330
	250.0000	488.328
	252.0000	488.303
	254.0000	488.277
	256.0000	488.252
	258.0000	488.410
	260.0000	488.568
	262.0000	488.726
	264.0000	488.678
	266.0000	488.629
	268.0000	488.581
	270.0000	488.295
	272.0000	488.010
	274.0000	487.724
	276.0000	487.582
	278.0000	487.441
	280.0000	487.299
	282.0000	487.177
	284.0000	487.054
	286.0000	486.932
	288.0000	487.011
	290.0000	487.089
	292.0000	487.168
	294.0000	486.899
	296.0000	486.629
	298.0000	486.360
	300.0000	486.219
	302.0000	486.078
	304.0000	485.937
	306.0000	486.032
	308.0000	486.128
	310.0000	486.223
	312.0000	486.498
	314.0000	486.772
	316.0000	487.047
	318.0000	486.608
	320.0000	486.168
	322.0000	485.729
	324.0000	485.772
	326.0000	485.816
	328.0000	485.859
	330.0000	485.790
	332.0000	485.720
	334.0000	485.651
	336.0000	485.683
	338.0000	485.715
	340.0000	485.747
	342.0000	485.274
	344.0000	484.802
	346.0000	484.329
	348.0000	484.786
	350.0000	485.243
	352.0000	485.700
	354.0000	485.267
	356.0000	484.833
	358.0000	484.400
	360.0000	484.452
	362.0000	484.504
	364.0000	484.556
	366.0000	484.506
	368.0000	484.455
	370.0000	484.405
	372.0000	484.108
	374.0000	483.812
	376.0000	483.515
	378.0000	483.656
	380.0000	483.797
	382.0000	483.938
	384.0000	483.926
	386.0000	483.915
	388.0000	483.903
	390.0000	483.653
	392.0000	483.403
	394.0000	483.153
	396.0000	483.259
	398.0000	483.364
	400.0000	483.470
	402.0000	483.184
	404.0000	482.897
	406.0000	482.611
	408.0000	482.610
	410.0000	482.610
	412.0000	482.609
	414.0000	482.712
	416.0000	482.815
	418.0000	482.918
	420.0000	482.451
	422.0000	481.983
	424.0000	481.516
	426.0000	481.759
	428.0000	482.002
	430.0000	482.245
	432.0000	482.164
	434.0000	482.084
	436.0000	482.003
	438.0000	481.878
	440.0000	481.752
	442.0000	481.627
	444.0000	481.582
	446.0000	481.538
	448.0000	481.493
	450.0000	481.213
	452.0000	480.932
	454.0000	480.652
	456.0000	480.873
	458.0000	481.093
	460.0000	481.314
	462.0000	481.201
	464.0000	481.087
	466.0000	480.974
	468.0000	480.809
	470.0000	480.643
	472.0000	480.478
	474.0000	480.603
	476.0000	480.728
	478.0000	480.853
	480.0000	480.748
	482.0000	480.642
	484.0000	480.537
	486.0000	480.305
	488.0000	480.074
	490.0000	479.842
	492.0000	479.794
	494.0000	479.745
	496.0000	479.697
	498.0000	479.754
	500.0000	479.811
	502.0000	479.868
	504.0000	479.673
	506.0000	479.479
	508.0000	479.284
	510.0000	479.429
	512.0000	479.573
	514.0000	479.718
	516.0000	479.529
	518.0000	479.339
	520.0000	479.150
	522.0000	478.967
	524.0000	478.784
	526.0000	478.601
	528.0000	478.686
	530.0000	478.770
	532.0000	478.855
	534.0000	478.626
	536.0000	478.396
	538.0000	478.167
	540.0000	478.226
	542.0000	478.284
	544.0000	478.343
	546.0000	477.842
	548.0000	477.340
	550.0000	476.839
	552.0000	477.154
	554.0000	477.468
	556.0000	477.783
	558.0000	477.572
	560.0000	477.360
	562.0000	477.149
	564.0000	477.134
	566.0000	477.118
	568.0000	477.103
	570.0000	477.035
	572.0000	476.967
	574.0000	476.899
	576.0000	476.507
	578.0000	476.114
	580.0000	475.722
	582.0000	475.934
	584.0000	476.146
	586.0000	476.358
	588.0000	476.459
	590.0000	476.559
	592.0000	476.660
	594.0000	476.315
	596.0000	475.971
	598.0000	475.626
	600.0000	475.792

