Data	Set	Name:	Wavelength	Pair	3
Analyst:	

Created:	16:09:43	03/20/15
Data:	Original

Instrument	Type:	RF-5301PC
Wavelength:	EX:648.0nm	EM:668.0nm
Slit	Width:	EX:5.0nm	EM:5.0nm
Acquisition	Ra	2.000	Seconds
Reaction	Time:	600.000	Seconds
Sensitivity:	High
Response	Time:	Auto	
Shutter	Mode:	Auto,	Closed

	Time(sec)	Intensity
	0.0000	80.523
	2.0000	80.523
	4.0000	80.523
	6.0000	80.636
	8.0000	80.750
	10.0000	80.863
	12.0000	80.826
	14.0000	80.789
	16.0000	80.752
	18.0000	80.808
	20.0000	80.864
	22.0000	80.920
	24.0000	80.805
	26.0000	80.690
	28.0000	80.575
	30.0000	80.531
	32.0000	80.488
	34.0000	80.444
	36.0000	80.383
	38.0000	80.322
	40.0000	80.261
	42.0000	80.293
	44.0000	80.325
	46.0000	80.357
	48.0000	80.282
	50.0000	80.207
	52.0000	80.132
	54.0000	80.008
	56.0000	79.883
	58.0000	79.759
	60.0000	80.048
	62.0000	80.338
	64.0000	80.627
	66.0000	80.413
	68.0000	80.199
	70.0000	79.985
	72.0000	79.921
	74.0000	79.858
	76.0000	79.794
	78.0000	79.883
	80.0000	79.973
	82.0000	80.062
	84.0000	80.154
	86.0000	80.246
	88.0000	80.338
	90.0000	80.174
	92.0000	80.009
	94.0000	79.845
	96.0000	80.013
	98.0000	80.180
	100.0000	80.348
	102.0000	80.267
	104.0000	80.186
	106.0000	80.105
	108.0000	80.162
	110.0000	80.219
	112.0000	80.276
	114.0000	80.273
	116.0000	80.271
	118.0000	80.268
	120.0000	80.142
	122.0000	80.017
	124.0000	79.891
	126.0000	80.020
	128.0000	80.148
	130.0000	80.277
	132.0000	80.153
	134.0000	80.028
	136.0000	79.904
	138.0000	79.899
	140.0000	79.894
	142.0000	79.889
	144.0000	79.924
	146.0000	79.960
	148.0000	79.995
	150.0000	80.007
	152.0000	80.019
	154.0000	80.031
	156.0000	79.885
	158.0000	79.739
	160.0000	79.593
	162.0000	79.650
	164.0000	79.707
	166.0000	79.764
	168.0000	79.776
	170.0000	79.787
	172.0000	79.799
	174.0000	79.712
	176.0000	79.624
	178.0000	79.537
	180.0000	79.545
	182.0000	79.552
	184.0000	79.560
	186.0000	79.658
	188.0000	79.757
	190.0000	79.855
	192.0000	79.825
	194.0000	79.795
	196.0000	79.765
	198.0000	79.784
	200.0000	79.804
	202.0000	79.823
	204.0000	79.756
	206.0000	79.688
	208.0000	79.621
	210.0000	79.586
	212.0000	79.551
	214.0000	79.516
	216.0000	79.380
	218.0000	79.244
	220.0000	79.108
	222.0000	78.968
	224.0000	78.829
	226.0000	78.689
	228.0000	79.119
	230.0000	79.549
	232.0000	79.979
	234.0000	79.835
	236.0000	79.690
	238.0000	79.546
	240.0000	79.438
	242.0000	79.331
	244.0000	79.223
	246.0000	79.328
	248.0000	79.434
	250.0000	79.539
	252.0000	79.430
	254.0000	79.321
	256.0000	79.212
	258.0000	79.216
	260.0000	79.219
	262.0000	79.223
	264.0000	79.368
	266.0000	79.512
	268.0000	79.657
	270.0000	79.544
	272.0000	79.432
	274.0000	79.319
	276.0000	79.196
	278.0000	79.073
	280.0000	78.950
	282.0000	78.881
	284.0000	78.813
	286.0000	78.744
	288.0000	78.735
	290.0000	78.725
	292.0000	78.716
	294.0000	78.868
	296.0000	79.020
	298.0000	79.172
	300.0000	79.293
	302.0000	79.415
	304.0000	79.536
	306.0000	79.401
	308.0000	79.266
	310.0000	79.131
	312.0000	79.134
	314.0000	79.138
	316.0000	79.141
	318.0000	79.141
	320.0000	79.140
	322.0000	79.140
	324.0000	79.145
	326.0000	79.151
	328.0000	79.156
	330.0000	79.076
	332.0000	78.995
	334.0000	78.915
	336.0000	78.891
	338.0000	78.867
	340.0000	78.843
	342.0000	78.914
	344.0000	78.984
	346.0000	79.055
	348.0000	79.025
	350.0000	78.996
	352.0000	78.966
	354.0000	78.976
	356.0000	78.987
	358.0000	78.997
	360.0000	78.988
	362.0000	78.979
	364.0000	78.970
	366.0000	78.942
	368.0000	78.913
	370.0000	78.885
	372.0000	78.821
	374.0000	78.756
	376.0000	78.692
	378.0000	78.656
	380.0000	78.621
	382.0000	78.585
	384.0000	78.612
	386.0000	78.638
	388.0000	78.665
	390.0000	78.622
	392.0000	78.579
	394.0000	78.536
	396.0000	78.587
	398.0000	78.639
	400.0000	78.690
	402.0000	78.614
	404.0000	78.537
	406.0000	78.461
	408.0000	78.539
	410.0000	78.618
	412.0000	78.696
	414.0000	78.682
	416.0000	78.668
	418.0000	78.654
	420.0000	78.741
	422.0000	78.829
	424.0000	78.916
	426.0000	78.680
	428.0000	78.444
	430.0000	78.208
	432.0000	78.307
	434.0000	78.405
	436.0000	78.504
	438.0000	78.385
	440.0000	78.265
	442.0000	78.146
	444.0000	78.254
	446.0000	78.362
	448.0000	78.470
	450.0000	78.398
	452.0000	78.325
	454.0000	78.253
	456.0000	78.224
	458.0000	78.195
	460.0000	78.166
	462.0000	78.249
	464.0000	78.331
	466.0000	78.414
	468.0000	78.359
	470.0000	78.303
	472.0000	78.248
	474.0000	78.369
	476.0000	78.491
	478.0000	78.612
	480.0000	78.358
	482.0000	78.104
	484.0000	77.850
	486.0000	77.923
	488.0000	77.997
	490.0000	78.070
	492.0000	78.022
	494.0000	77.973
	496.0000	77.925
	498.0000	78.003
	500.0000	78.080
	502.0000	78.158
	504.0000	78.069
	506.0000	77.979
	508.0000	77.890
	510.0000	77.877
	512.0000	77.863
	514.0000	77.850
	516.0000	77.833
	518.0000	77.815
	520.0000	77.798
	522.0000	77.715
	524.0000	77.633
	526.0000	77.550
	528.0000	77.696
	530.0000	77.843
	532.0000	77.989
	534.0000	78.069
	536.0000	78.150
	538.0000	78.230
	540.0000	77.914
	542.0000	77.599
	544.0000	77.283
	546.0000	77.521
	548.0000	77.759
	550.0000	77.997
	552.0000	77.840
	554.0000	77.683
	556.0000	77.526
	558.0000	77.620
	560.0000	77.714
	562.0000	77.808
	564.0000	77.716
	566.0000	77.625
	568.0000	77.533
	570.0000	77.378
	572.0000	77.223
	574.0000	77.068
	576.0000	77.124
	578.0000	77.181
	580.0000	77.237
	582.0000	77.251
	584.0000	77.266
	586.0000	77.280
	588.0000	77.386
	590.0000	77.492
	592.0000	77.598
	594.0000	77.496
	596.0000	77.394
	598.0000	77.292
	600.0000	77.139

