Data	Set	Name:	Wavelength	Pair	1
Analyst:	

Created:	16:51:04	03/20/15
Data:	Original

Instrument	Type:	RF-5301PC
Wavelength:	EX:495.0nm	EM:520.0nm
Slit	Width:	EX:5.0nm	EM:5.0nm
Acquisition	Ra	2.000	Seconds
Reaction	Time:	600.000	Seconds
Sensitivity:	High
Response	Time:	Auto	
Shutter	Mode:	Auto,	Closed

	Time(sec)	Intensity
	0.0000	325.578
	2.0000	325.578
	4.0000	325.578
	6.0000	325.914
	8.0000	326.250
	10.0000	326.586
	12.0000	326.482
	14.0000	326.378
	16.0000	326.274
	18.0000	326.351
	20.0000	326.427
	22.0000	326.504
	24.0000	326.527
	26.0000	326.549
	28.0000	326.572
	30.0000	326.466
	32.0000	326.361
	34.0000	326.255
	36.0000	326.200
	38.0000	326.146
	40.0000	326.091
	42.0000	325.993
	44.0000	325.896
	46.0000	325.798
	48.0000	325.867
	50.0000	325.937
	52.0000	326.006
	54.0000	325.873
	56.0000	325.740
	58.0000	325.607
	60.0000	325.473
	62.0000	325.339
	64.0000	325.205
	66.0000	325.158
	68.0000	325.112
	70.0000	325.065
	72.0000	325.285
	74.0000	325.506
	76.0000	325.726
	78.0000	325.765
	80.0000	325.804
	82.0000	325.843
	84.0000	325.728
	86.0000	325.614
	88.0000	325.499
	90.0000	325.337
	92.0000	325.176
	94.0000	325.014
	96.0000	325.095
	98.0000	325.175
	100.0000	325.256
	102.0000	325.137
	104.0000	325.018
	106.0000	324.899
	108.0000	324.940
	110.0000	324.980
	112.0000	325.021
	114.0000	324.978
	116.0000	324.934
	118.0000	324.891
	120.0000	324.863
	122.0000	324.835
	124.0000	324.807
	126.0000	324.691
	128.0000	324.575
	130.0000	324.459
	132.0000	324.408
	134.0000	324.357
	136.0000	324.306
	138.0000	324.458
	140.0000	324.610
	142.0000	324.762
	144.0000	324.489
	146.0000	324.215
	148.0000	323.942
	150.0000	324.004
	152.0000	324.066
	154.0000	324.128
	156.0000	324.163
	158.0000	324.198
	160.0000	324.233
	162.0000	324.127
	164.0000	324.020
	166.0000	323.914
	168.0000	323.703
	170.0000	323.491
	172.0000	323.280
	174.0000	323.563
	176.0000	323.846
	178.0000	324.129
	180.0000	323.950
	182.0000	323.771
	184.0000	323.592
	186.0000	323.707
	188.0000	323.821
	190.0000	323.936
	192.0000	323.709
	194.0000	323.482
	196.0000	323.255
	198.0000	323.373
	200.0000	323.491
	202.0000	323.609
	204.0000	323.539
	206.0000	323.468
	208.0000	323.398
	210.0000	323.312
	212.0000	323.227
	214.0000	323.141
	216.0000	323.200
	218.0000	323.259
	220.0000	323.318
	222.0000	323.355
	224.0000	323.392
	226.0000	323.429
	228.0000	323.290
	230.0000	323.151
	232.0000	323.012
	234.0000	322.928
	236.0000	322.843
	238.0000	322.759
	240.0000	322.863
	242.0000	322.968
	244.0000	323.072
	246.0000	323.008
	248.0000	322.945
	250.0000	322.881
	252.0000	322.775
	254.0000	322.670
	256.0000	322.564
	258.0000	322.638
	260.0000	322.713
	262.0000	322.787
	264.0000	322.737
	266.0000	322.687
	268.0000	322.637
	270.0000	322.498
	272.0000	322.359
	274.0000	322.220
	276.0000	322.383
	278.0000	322.545
	280.0000	322.708
	282.0000	322.480
	284.0000	322.251
	286.0000	322.023
	288.0000	322.158
	290.0000	322.294
	292.0000	322.429
	294.0000	322.255
	296.0000	322.081
	298.0000	321.907
	300.0000	322.091
	302.0000	322.274
	304.0000	322.458
	306.0000	322.428
	308.0000	322.398
	310.0000	322.368
	312.0000	322.240
	314.0000	322.112
	316.0000	321.984
	318.0000	321.882
	320.0000	321.781
	322.0000	321.679
	324.0000	321.864
	326.0000	322.048
	328.0000	322.233
	330.0000	322.218
	332.0000	322.202
	334.0000	322.187
	336.0000	322.296
	338.0000	322.404
	340.0000	322.513
	342.0000	322.210
	344.0000	321.908
	346.0000	321.605
	348.0000	321.501
	350.0000	321.398
	352.0000	321.294
	354.0000	321.414
	356.0000	321.535
	358.0000	321.655
	360.0000	321.670
	362.0000	321.684
	364.0000	321.699
	366.0000	321.518
	368.0000	321.336
	370.0000	321.155
	372.0000	321.258
	374.0000	321.362
	376.0000	321.465
	378.0000	321.253
	380.0000	321.042
	382.0000	320.830
	384.0000	320.865
	386.0000	320.901
	388.0000	320.936
	390.0000	321.042
	392.0000	321.147
	394.0000	321.253
	396.0000	321.413
	398.0000	321.573
	400.0000	321.733
	402.0000	321.561
	404.0000	321.389
	406.0000	321.217
	408.0000	321.135
	410.0000	321.052
	412.0000	320.970
	414.0000	320.907
	416.0000	320.845
	418.0000	320.782
	420.0000	321.073
	422.0000	321.364
	424.0000	321.655
	426.0000	321.347
	428.0000	321.038
	430.0000	320.730
	432.0000	320.518
	434.0000	320.305
	436.0000	320.093
	438.0000	320.358
	440.0000	320.624
	442.0000	320.889
	444.0000	321.043
	446.0000	321.196
	448.0000	321.350
	450.0000	321.068
	452.0000	320.786
	454.0000	320.504
	456.0000	320.773
	458.0000	321.042
	460.0000	321.311
	462.0000	321.165
	464.0000	321.018
	466.0000	320.872
	468.0000	320.729
	470.0000	320.587
	472.0000	320.444
	474.0000	320.481
	476.0000	320.518
	478.0000	320.555
	480.0000	320.325
	482.0000	320.094
	484.0000	319.864
	486.0000	320.112
	488.0000	320.361
	490.0000	320.609
	492.0000	320.471
	494.0000	320.332
	496.0000	320.194
	498.0000	320.176
	500.0000	320.157
	502.0000	320.139
	504.0000	320.071
	506.0000	320.002
	508.0000	319.934
	510.0000	320.033
	512.0000	320.132
	514.0000	320.231
	516.0000	320.181
	518.0000	320.132
	520.0000	320.082
	522.0000	320.094
	524.0000	320.107
	526.0000	320.119
	528.0000	320.027
	530.0000	319.934
	532.0000	319.842
	534.0000	319.977
	536.0000	320.112
	538.0000	320.247
	540.0000	320.115
	542.0000	319.982
	544.0000	319.850
	546.0000	319.781
	548.0000	319.712
	550.0000	319.643
	552.0000	319.814
	554.0000	319.986
	556.0000	320.157
	558.0000	320.061
	560.0000	319.965
	562.0000	319.869
	564.0000	319.796
	566.0000	319.723
	568.0000	319.650
	570.0000	319.626
	572.0000	319.603
	574.0000	319.579
	576.0000	319.624
	578.0000	319.668
	580.0000	319.713
	582.0000	319.678
	584.0000	319.644
	586.0000	319.609
	588.0000	319.649
	590.0000	319.690
	592.0000	319.730
	594.0000	319.694
	596.0000	319.657
	598.0000	319.621
	600.0000	319.512

