Data	Set	Name:	Wavelength	Pair	2
Analyst:	

Created:	16:51:04	03/20/15
Data:	Original

Instrument	Type:	RF-5301PC
Wavelength:	EX:549.0nm	EM:563.0nm
Slit	Width:	EX:5.0nm	EM:5.0nm
Acquisition	Ra	2.000	Seconds
Reaction	Time:	600.000	Seconds
Sensitivity:	High
Response	Time:	Auto	
Shutter	Mode:	Auto,	Closed

	Time(sec)	Intensity
	0.0000	358.094
	2.0000	358.094
	4.0000	358.094
	6.0000	357.842
	8.0000	357.591
	10.0000	357.339
	12.0000	357.539
	14.0000	357.739
	16.0000	357.939
	18.0000	357.855
	20.0000	357.770
	22.0000	357.686
	24.0000	357.661
	26.0000	357.635
	28.0000	357.610
	30.0000	357.604
	32.0000	357.599
	34.0000	357.593
	36.0000	357.473
	38.0000	357.352
	40.0000	357.232
	42.0000	357.238
	44.0000	357.244
	46.0000	357.250
	48.0000	357.307
	50.0000	357.363
	52.0000	357.420
	54.0000	357.398
	56.0000	357.375
	58.0000	357.353
	60.0000	357.275
	62.0000	357.196
	64.0000	357.118
	66.0000	357.097
	68.0000	357.077
	70.0000	357.056
	72.0000	356.970
	74.0000	356.884
	76.0000	356.798
	78.0000	356.974
	80.0000	357.150
	82.0000	357.326
	84.0000	357.157
	86.0000	356.987
	88.0000	356.818
	90.0000	356.896
	92.0000	356.974
	94.0000	357.052
	96.0000	357.066
	98.0000	357.080
	100.0000	357.094
	102.0000	356.855
	104.0000	356.616
	106.0000	356.377
	108.0000	356.568
	110.0000	356.759
	112.0000	356.950
	114.0000	356.800
	116.0000	356.649
	118.0000	356.499
	120.0000	356.479
	122.0000	356.460
	124.0000	356.440
	126.0000	356.404
	128.0000	356.369
	130.0000	356.333
	132.0000	356.285
	134.0000	356.236
	136.0000	356.188
	138.0000	356.238
	140.0000	356.287
	142.0000	356.337
	144.0000	356.337
	146.0000	356.336
	148.0000	356.336
	150.0000	356.465
	152.0000	356.593
	154.0000	356.722
	156.0000	356.583
	158.0000	356.443
	160.0000	356.304
	162.0000	356.336
	164.0000	356.369
	166.0000	356.401
	168.0000	356.423
	170.0000	356.445
	172.0000	356.467
	174.0000	356.386
	176.0000	356.306
	178.0000	356.225
	180.0000	356.309
	182.0000	356.392
	184.0000	356.476
	186.0000	356.416
	188.0000	356.357
	190.0000	356.297
	192.0000	356.230
	194.0000	356.163
	196.0000	356.096
	198.0000	356.004
	200.0000	355.913
	202.0000	355.821
	204.0000	355.963
	206.0000	356.105
	208.0000	356.247
	210.0000	356.158
	212.0000	356.068
	214.0000	355.979
	216.0000	356.141
	218.0000	356.302
	220.0000	356.464
	222.0000	356.452
	224.0000	356.441
	226.0000	356.429
	228.0000	356.454
	230.0000	356.478
	232.0000	356.503
	234.0000	356.540
	236.0000	356.577
	238.0000	356.614
	240.0000	356.179
	242.0000	355.743
	244.0000	355.308
	246.0000	355.439
	248.0000	355.569
	250.0000	355.700
	252.0000	355.605
	254.0000	355.510
	256.0000	355.415
	258.0000	355.671
	260.0000	355.926
	262.0000	356.182
	264.0000	356.206
	266.0000	356.231
	268.0000	356.255
	270.0000	355.984
	272.0000	355.712
	274.0000	355.441
	276.0000	355.364
	278.0000	355.288
	280.0000	355.211
	282.0000	355.417
	284.0000	355.623
	286.0000	355.829
	288.0000	355.490
	290.0000	355.151
	292.0000	354.812
	294.0000	355.081
	296.0000	355.349
	298.0000	355.618
	300.0000	355.539
	302.0000	355.459
	304.0000	355.380
	306.0000	355.504
	308.0000	355.628
	310.0000	355.752
	312.0000	355.721
	314.0000	355.689
	316.0000	355.658
	318.0000	355.444
	320.0000	355.230
	322.0000	355.016
	324.0000	355.312
	326.0000	355.609
	328.0000	355.905
	330.0000	355.845
	332.0000	355.785
	334.0000	355.725
	336.0000	355.680
	338.0000	355.634
	340.0000	355.589
	342.0000	355.367
	344.0000	355.145
	346.0000	354.923
	348.0000	355.062
	350.0000	355.201
	352.0000	355.340
	354.0000	355.408
	356.0000	355.477
	358.0000	355.545
	360.0000	355.587
	362.0000	355.630
	364.0000	355.672
	366.0000	355.787
	368.0000	355.901
	370.0000	356.016
	372.0000	355.909
	374.0000	355.803
	376.0000	355.696
	378.0000	355.343
	380.0000	354.990
	382.0000	354.637
	384.0000	354.974
	386.0000	355.311
	388.0000	355.648
	390.0000	355.726
	392.0000	355.805
	394.0000	355.883
	396.0000	355.757
	398.0000	355.632
	400.0000	355.506
	402.0000	355.314
	404.0000	355.122
	406.0000	354.930
	408.0000	354.958
	410.0000	354.985
	412.0000	355.013
	414.0000	355.347
	416.0000	355.681
	418.0000	356.015
	420.0000	355.820
	422.0000	355.625
	424.0000	355.430
	426.0000	355.244
	428.0000	355.058
	430.0000	354.872
	432.0000	355.026
	434.0000	355.180
	436.0000	355.334
	438.0000	355.340
	440.0000	355.346
	442.0000	355.352
	444.0000	355.284
	446.0000	355.217
	448.0000	355.149
	450.0000	354.961
	452.0000	354.773
	454.0000	354.585
	456.0000	354.745
	458.0000	354.906
	460.0000	355.066
	462.0000	355.045
	464.0000	355.024
	466.0000	355.003
	468.0000	354.935
	470.0000	354.868
	472.0000	354.800
	474.0000	355.167
	476.0000	355.533
	478.0000	355.900
	480.0000	355.610
	482.0000	355.319
	484.0000	355.029
	486.0000	355.162
	488.0000	355.295
	490.0000	355.428
	492.0000	355.406
	494.0000	355.384
	496.0000	355.362
	498.0000	355.290
	500.0000	355.218
	502.0000	355.146
	504.0000	355.355
	506.0000	355.565
	508.0000	355.774
	510.0000	355.563
	512.0000	355.351
	514.0000	355.140
	516.0000	355.246
	518.0000	355.352
	520.0000	355.458
	522.0000	355.304
	524.0000	355.150
	526.0000	354.996
	528.0000	355.181
	530.0000	355.366
	532.0000	355.551
	534.0000	355.470
	536.0000	355.388
	538.0000	355.307
	540.0000	355.202
	542.0000	355.096
	544.0000	354.991
	546.0000	354.871
	548.0000	354.752
	550.0000	354.632
	552.0000	354.857
	554.0000	355.083
	556.0000	355.308
	558.0000	355.301
	560.0000	355.295
	562.0000	355.288
	564.0000	355.170
	566.0000	355.052
	568.0000	354.934
	570.0000	355.075
	572.0000	355.216
	574.0000	355.357
	576.0000	355.022
	578.0000	354.688
	580.0000	354.353
	582.0000	354.367
	584.0000	354.380
	586.0000	354.394
	588.0000	354.395
	590.0000	354.397
	592.0000	354.398
	594.0000	354.678
	596.0000	354.958
	598.0000	355.238
	600.0000	355.132

